Volume,Observed Pressure,Calculated Pressure
0.0498868,49545,49552.5
0.0489086,50510.7,50534.4
0.0479681,51495.8,51516
0.047063,52484.4,52497.2
0.0461915,53496.6,53478.1
0.0453517,54432.5,54458.6
0.0445418,55442.2,55438.7
0.0437604,56415.8,56418.5
0.0430059,57387.9,57397.9
0.042277,58358.6,58376.9
0.0415724,59370.6,59355.6
0.0408908,60362.8,60334
0.0402313,61306.2,61312
0.0395927,62286.9,62289.6
0.0389741,63277.9,63266.9
0.0383745,64259.7,64243.8
0.037793,65228.5,65220.3
0.037229,66226.9,66196.5
0.0366815,67162.4,67172.4
0.0361499,68158,68147.8
0.0356334,69142.8,69123
0.0351316,70130.9,70097.7
0.0346436,71090.8,71072.1
0.0341691,72027,72046.2
0.0337073,72991.6,73019.9
0.0332579,74021.4,73993.2
0.0328203,74947.1,74966.2
0.032394,75944.7,75938.8
0.0319787,76940.6,76911.1
0.0315739,77845,77883
0.0311793,78887.9,78854.5
0.0307943,79831.1,79825.7
0.0304188,80773.6,80796.5
0.0300523,81788.4,81767
0.0296945,82753.1,82737.1
0.0293452,83706.7,83706.8
0.029004,84688.9,84676.2
0.0286706,85631,85645.3
0.0283448,86621.1,86614
0.0280263,87587.9,87582.3
0.0277149,88580.8,88550.2
0.0274103,89481.6,89517.8
0.0271124,90509.4,90485.1
0.0268209,91441.2,91452
0.0265355,92421.5,92418.5
0.0262562,93346,93384.7
0.0259827,94370,94350.5
0.0257149,95322.5,95316
0.0254525,96275.6,96281.1
0.0251954,97245.4,97245.8
0.0249434,98161.5,98210.2
0.0246964,99181,99174.2
0.0244543,100104,100138
0.0242169,101052,101101
0.023984,102043,102064
0.0237556,103041,103027
0.0235315,104025,103989
0.0233116,104983,104951
0.0230958,105862,105912
0.0228839,106907,106874
0.0226758,107796,107834
0.0224715,108843,108795
0.0222709,109799,109755
0.0220738,110705,110715
0.0218802,111676,111674
0.0216899,112624,112633
0.0215029,113596,113592
0.0213192,114572,114550
0.0211385,115482,115508
0.0209608,116477,116466
0.0207862,117416,117423
0.0206144,118349,118380
0.0204454,119362,119336
0.0202792,120345,120292
0.0201157,121264,121248
0.0199547,122147,122204
0.0197964,123113,123159
0.0196405,124067,124113
0.019487,125125,125068
0.019336,126011,126022
0.0191872,126950,126975
0.0190408,127948,127929
0.0188965,128928,128882
0.0187544,129867,129834
0.0186145,130734,130786
0.0184766,131681,131738
0.0183407,132701,132690
0.0182069,133686,133641
0.0180749,134555,134592
0.0179449,135570,135542
0.0178167,136433,136492
0.0176904,137450,137442
0.0175658,138456,138391
0.0174429,139363,139340
0.0173218,140319,140289
0.0172024,141285,141237
0.0170845,142155,142185
0.0169683,143145,143133
0.0168537,144109,144080
0.0167405,145071,145027
0.0166289,145920,145973
0.0165188,146913,146919
0.0164101,147806,147865
0.0163029,148838,148810
0.016197,149778,149756
0.0160925,150747,150700
0.0159894,151589,151645
0.0158875,152630,152589
0.015787,153506,153532
0.0156877,154470,154475
0.0155896,155461,155418
0.0154928,156325,156361
0.0153972,157296,157303
0.0153027,158208,158245
0.0152094,159244,159186
0.0151172,160165,160128
0.0150262,161019,161068
0.0149362,162018,162009
0.0148473,162950,162949
0.0147594,163833,163889
0.0146726,164774,164828
0.0145868,165687,165767
0.014502,166747,166705
0.0144182,167708,167644
0.0143353,168496,168582
0.0142534,169532,169519
0.0141724,170408,170456
0.0140923,171361,171393
0.0140132,172402,172330
0.0139349,173321,173266
0.0138575,174161,174202
0.0137809,175056,175137
0.0137052,176089,176072
0.0136303,177028,177007
0.0135562,177930,177941
0.0134829,178785,178875
0.0134104,179819,179809
0.0133387,180728,180742
0.0132678,181738,181675
0.0131976,182516,182607
0.0131281,183460,183539
0.0130594,184473,184471
0.0129914,185441,185403
0.012924,186410,186334
0.0128574,187309,187265
0.0127915,188134,188195
0.0127262,189104,189125
0.0126616,189972,190055
0.0125977,191074,190984
0.0125344,191873,191913
0.0124717,192900,192842
0.0124097,193766,193770
0.0123482,194696,194698
0.0122874,195590,195625
0.0122272,196626,196552
0.0121675,197419,197479
0.0121085,198457,198406
0.01205,199408,199332
0.011992,200291,200258
0.0119346,201136,201183
0.0118778,202159,202108
0.0118215,203116,203033
0.0117658,204048,203957
0.0117105,204883,204881
0.0116558,205769,205804
0.0116016,206709,206728
0.0115479,207693,207651
0.0114947,208600,208573
0.0114419,209489,209495
0.0113897,210471,210417
0.0113379,211286,211339
0.0112866,212302,212260
0.0112358,213199,213180
0.0111854,214195,214101
0.0111355,215019,215021
0.011086,215940,215940
0.0110369,216926,216860
0.0109883,217829,217779
0.0109401,218764,218697
0.0108923,219628,219615
0.010845,220606,220533
0.010798,221474,221451
0.0107515,222401,222368
0.0107053,223217,223285
0.0106596,224227,224201
0.0106142,225158,225117
0.0105692,226016,226033
0.0105246,226999,226948
0.0104804,227852,227863
0.0104366,228728,228778
0.0103931,229738,229692
0.01035,230706,230606
0.0103072,231608,231520
0.0102648,232474,232433
0.0102227,233278,233346
0.010181,234289,234258
0.0101396,235169,235171
0.0100985,236039,236082
0.0100578,236922,236994
0.0100174,237937,237905
0.00997736,238746,238816
0.00993761,239762,239726
0.00989818,240671,240636
0.00985906,241559,241546
0.00982024,242464,242455
0.00978173,243398,243364
0.00974352,244158,244272
0.00970561,245198,245181
0.00966799,246043,246089
0.00963066,247087,246996
0.00959362,247945,247903
0.00955686,248897,248810
0.00952039,249631,249716
0.00948419,250680,250622
0.00944826,251459,251528
0.00941261,252341,252433
0.00937722,253223,253338
0.0093421,254314,254243
0.00930724,255152,255147
0.00927264,256055,256051
0.0092383,256934,256955
0.00920421,257944,257858
0.00917037,258784,258761
0.00913678,259594,259663
0.00910343,260470,260566
0.00907033,261459,261467
0.00903747,262273,262369
0.00900484,263160,263270
0.00897245,264195,264170
0.00894029,265108,265071
0.00890836,265942,265971
0.00887666,266902,266870
0.00884518,267782,267770
0.00881393,268700,268669
0.00878289,269561,269567
0.00875207,270462,270465
0.00872147,271273,271363
0.00869108,272379,272261
0.00866091,273175,273158
0.00863094,274125,274055
0.00860118,274844,274951
0.00857162,275897,275847
0.00854226,276694,276743
0.00851311,277702,277638
0.00848415,278409,278533
0.00845539,279441,279428
0.00842683,280407,280322
0.00839845,281125,281216
0.00837027,282133,282109
0.00834228,282996,283003
0.00831447,283758,283895
0.00828685,284798,284788
0.00825941,285555,285680
0.00823215,286422,286572
0.00820507,287499,287463
0.00817817,288314,288354
0.00815144,289128,289245
0.00812489,290241,290135
0.00809851,290936,291025
0.0080723,291927,291915
0.00804626,292826,292804
0.00802039,293700,293693
0.00799468,294577,294582
0.00796914,295566,295470
0.00794376,296441,296358
0.00791854,297286,297245
0.00789348,298142,298132
0.00786858,298938,299019
0.00784384,299822,299905
0.00781925,300929,300791
0.00779482,301609,301677
0.00777053,302549,302562
0.0077464,303462,303447
0.00772242,304255,304332
0.00769858,305324,305216
0.0076749,306183,306100
0.00765135,306868,306984
0.00762795,307742,307867
0.0076047,308763,308750
0.00758158,309604,309632
0.00755861,310399,310514
0.00753577,311435,311396
0.00751308,312230,312277
0.00749051,313276,313158
0.00746809,314039,314039
0.00744579,314966,314919
0.00742363,315761,315799
0.00740161,316802,316679
0.00737971,317651,317558
0.00735794,318422,318437
0.0073363,319164,319316
0.00731478,320265,320194
0.00729339,321040,321072
0.00727213,321925,321949
0.00725099,322788,322826
0.00722997,323755,323703
0.00720908,324641,324579
0.0071883,325597,325455
0.00716765,326169,326331
0.00714711,327327,327206
0.00712669,328130,328081
0.00710638,329039,328956
0.0070862,329793,329830
0.00706612,330826,330704
0.00704616,331447,331577
0.00702631,332485,332451
0.00700658,333453,333323
0.00698695,334114,334196
0.00696743,335102,335068
0.00694803,336081,335940
0.00692873,336714,336811
0.00690953,337531,337682
0.00689044,338696,338553
0.00687146,339544,339423
0.00685259,340182,340293
0.00683381,341014,341163
0.00681514,342134,342032
0.00679657,342833,342901
0.0067781,343856,343769
0.00675973,344686,344637
0.00674146,345607,345505
0.00672329,346291,346373
0.00670522,347269,347240
0.00668724,348213,348106
0.00666936,348984,348973
0.00665158,349706,349839
0.00663389,350565,350704
0.00661629,351722,351570
0.00659879,352356,352435
0.00658137,353277,353299
0.00656406,353984,354164
0.00654683,354976,355027
0.00652969,356054,355891
0.00651264,356769,356754
0.00649568,357523,357617
0.00647881,358536,358479
0.00646202,359382,359341
0.00644533,360272,360203
0.00642871,361170,361064
0.00641219,361739,361926
0.00639575,362623,362786
0.00637939,363803,363646
0.00636311,364634,364506
0.00634692,365485,365366
0.00633081,366363,366225
0.00631479,367219,367084
0.00629884,367962,367943
0.00628297,368856,368801
0.00626719,369558,369659
0.00625148,370354,370516
0.00623585,371232,371373
0.0062203,372139,372230
0.00620483,373136,373086
0.00618943,374093,373942
0.00617411,374731,374798
0.00615887,375592,375653
0.0061437,376489,376508
0.0061286,377429,377363
0.00611358,378217,378217
0.00609863,379206,379071
0.00608376,379907,379924
0.00606896,380631,380777
0.00605423,381682,381630
0.00603957,382316,382482
0.00602498,383306,383335
0.00601046,384106,384186
0.00599601,385203,385038
0.00598163,385922,385889
0.00596732,386749,386739
0.00595308,387428,387590
0.00593891,388477,388439
0.0059248,389341,389289
0.00591076,389941,390138
0.00589679,390840,390987
0.00588288,391926,391836
0.00586904,392769,392684
0.00585526,393492,393532
0.00584155,394301,394379
0.0058279,395219,395226
0.00581431,395952,396073
0.00580079,396836,396919
0.00578733,397719,397765
0.00577394,398424,398611
0.0057606,399590,399456
0.00574733,400259,400301
0.00573412,401065,401146
0.00572097,401906,401990
0.00570787,402768,402834
0.00569484,403755,403677
0.00568187,404349,404520
0.00566896,405332,405363
0.0056561,406294,406205
0.00564331,406937,407047
0.00563057,407815,407889
0.00561789,408653,408731
0.00560526,409572,409571
0.00559269,410510,410412
0.00558018,411251,411252
0.00556773,412250,412092
0.00555533,413030,412932
0.00554298,413758,413771
0.00553069,414736,414610
0.00551845,415619,415448
0.00550627,416266,416287
0.00549414,417179,417124
0.00548207,417740,417962
0.00547005,418787,418799
0.00545808,419494,419635
0.00544616,420513,420472
0.00543429,421315,421308
0.00542248,422206,422143
0.00541072,423145,422979
0.00539901,423597,423814
0.00538735,424751,424648
0.00537573,425295,425482
0.00536417,426367,426316
0.00535266,427181,427150
0.0053412,428157,427983
0.00532979,428924,428816
0.00531842,429594,429648
0.00530711,430318,430480
0.00529584,431360,431312
0.00528462,432315,432143
0.00527345,432934,432974
0.00526232,433996,433805
0.00525124,434761,434635
0.00524021,435456,435465
0.00522923,436363,436294
0.00521829,437143,437124
0.00520739,437916,437953
0.00519654,438735,438781
0.00518574,439670,439609
0.00517498,440554,440437
0.00516427,441438,441264
0.0051536,442216,442091
0.00514297,442679,442918
0.00513239,443537,443744
0.00512185,444738,444570
0.00511135,445361,445396
0.0051009,446317,446221
0.00509049,447052,447046
0.00508012,447923,447871
0.0050698,448533,448695
0.00505952,449562,449519
0.00504927,450519,450342
0.00503907,451228,451165
0.00502891,452139,451988
0.00501879,452586,452810
0.00500872,453393,453633
0.00499868,454380,454454
0.00498868,455225,455276
