Volume,Observed Pressure,Calculated Pressure
0.166289,9980.44,9983.96
0.151172,10985.4,10980.6
0.138574,11977.3,11976.9
0.127915,12975.9,12972.9
0.118778,13966.1,13968.6
0.11086,14964.4,14963.9
0.103931,15958.3,15959
0.0978173,16955.6,16953.7
0.092383,17948.7,17948.1
0.0875207,18951.5,18942.2
0.0831447,19937.9,19935.9
0.0791854,20938,20929.3
0.0755861,21933.2,21922.5
0.0722997,22917.7,22915.3
0.0692872,23902.2,23907.7
0.0665158,24906.7,24899.9
0.0639575,25882.1,25891.7
0.0615887,26888.6,26883.3
0.0593891,27871.9,27874.5
0.0573412,28862,28865.4
0.0554298,29842.5,29855.9
0.0536417,30830.8,30846.2
0.0519654,31827.4,31836.1
0.0503907,32836.1,32825.7
0.0489086,33805.7,33815
0.0475113,34794.3,34804
0.0461915,35779.3,35792.6
0.0449431,36763.4,36781
0.0437604,37752.5,37769
0.0426383,38761.8,38756.7
0.0415723,39751.2,39744.1
0.0405584,40739.2,40731.1
0.0395927,41712.6,41717.9
0.038672,42696.2,42704.3
0.037793,43710.7,43690.4
0.0369532,44686.4,44676.2
0.0361499,45664.8,45661.7
0.0353807,46663.1,46646.9
0.0346436,47643.2,47631.7
0.0339366,48630.1,48616.2
0.0332579,49617.2,49600.4
0.0326058,50588.4,50584.3
0.0319787,51571.1,51567.9
0.0313754,52528.8,52551.2
0.0307943,53516.6,53534.1
0.0302344,54500.5,54516.7
0.0296945,55472.8,55499.1
0.0291736,56495.8,56481
0.0286706,57475.9,57462.7
0.0281846,58444.2,58444.1
0.0277149,59407.7,59425.1
0.0272606,60420.8,60405.9
0.0268209,61413.2,61386.3
0.0263951,62353.7,62366.4
0.0259827,63346.2,63346.1
0.025583,64296.1,64325.6
0.0251954,65286,65304.8
0.0248193,66284.1,66283.6
0.0244543,67273,67262.1
0.0240999,68228.6,68240.3
0.0237556,69220.1,69218.2
0.023421,70162.7,70195.8
0.0230957,71138.3,71173
0.0227794,72115.3,72150
0.0224715,73147,73126.6
0.0221719,74092.2,74102.9
0.0218802,75103.6,75078.9
0.021596,76070.9,76054.6
0.0213192,76994.2,77029.9
0.0210493,77984.8,78005
0.0207862,78961.8,78979.7
0.0205296,79949.9,79954.2
0.0202792,80904.8,80928.3
0.0200349,81936.7,81902.1
0.0197964,82915.8,82875.5
0.0195635,83858.7,83848.7
0.019336,84850.6,84821.5
0.0191137,85821.1,85794.1
0.0188965,86810.1,86766.3
0.0186842,87756.2,87738.2
0.0184766,88702.9,88709.8
0.0182736,89641.2,89681.1
0.0180749,90658.9,90652.1
0.0178806,91584.5,91622.7
0.0176904,92555.2,92593
0.0175041,93561.1,93563.1
0.0173218,94551.1,94532.8
0.0171432,95550.2,95502.2
0.0169683,96469.1,96471.3
0.0167969,97445.7,97440
0.0166289,98376.1,98408.5
0.0164643,99406.7,99376.7
0.0163029,100315,100344
0.0161446,101338,101312
0.0159894,102243,102279
0.0158371,103237,103246
0.0156877,104232,104213
0.0155411,105135,105179
0.0153972,106169,106145
0.0152559,107140,107111
0.0151172,108074,108076
0.014981,108989,109041
0.0148473,109973,110006
0.0147159,110982,110970
0.0145868,111879,111934
0.0144599,112941,112898
0.0143353,113906,113861
0.0142128,114863,114825
0.0140923,115817,115787
0.0139739,116735,116750
0.0138574,117755,117712
0.0137429,118631,118674
0.0136303,119628,119636
0.0135195,120642,120597
0.0134104,121619,121558
0.0133032,122485,122519
0.0131976,123500,123479
0.0130937,124469,124439
0.0129914,125338,125399
0.0128907,126402,126358
0.0127915,127256,127317
0.0126938,128264,128276
0.0125977,129202,129234
0.012503,130211,130193
0.0124097,131123,131150
0.0123177,132060,132108
0.0122272,133042,133065
0.0121379,133999,134022
0.01205,135003,134979
0.0119633,135958,135935
0.0118778,136865,136891
0.0117936,137882,137847
0.0117105,138844,138802
0.0116286,139821,139757
0.0115479,140737,140712
0.0114682,141680,141667
0.0113897,142563,142621
0.0113122,143609,143575
0.0112358,144595,144528
0.0111604,145512,145481
0.011086,146439,146434
0.0110125,147380,147387
0.0109401,148328,148339
0.0108686,149337,149291
0.010798,150282,150243
0.0107283,151158,151194
0.0106596,152176,152145
0.0105917,153083,153096
0.0105246,153981,154046
0.0104585,154932,154996
0.0103931,155887,155946
0.0103285,156930,156896
0.0102648,157783,157845
0.0102018,158777,158794
0.0101396,159794,159742
0.0100781,160724,160691
0.0100174,161689,161639
0.00995745,162555,162586
0.00989818,163483,163534
0.00983961,164513,164481
0.00978173,165424,165428
0.00972453,166303,166374
0.00966799,167248,167320
0.0096121,168208,168266
0.00955686,169131,169211
0.00950225,170136,170157
0.00944826,171133,171102
0.00939488,172061,172046
0.0093421,172994,172990
0.00928991,174002,173934
0.0092383,174961,174878
0.00918726,175882,175821
0.00913678,176819,176765
0.00908685,177664,177707
0.00903747,178638,178650
0.00898862,179575,179592
0.00894029,180483,180534
0.00889248,181423,181475
0.00884518,182388,182416
0.00879838,183289,183357
0.00875207,184353,184298
0.00870625,185331,185238
0.00866091,186145,186178
0.00861603,187087,187118
0.00857162,188087,188057
0.00852766,189033,188996
0.00848415,190017,189935
0.00844109,190783,190874
0.00839845,191809,191812
0.00835625,192723,192750
0.00831447,193733,193687
0.0082731,194590,194625
0.00823215,195492,195561
0.0081916,196442,196498
0.00815144,197438,197434
0.00811168,198364,198370
0.0080723,199374,199306
0.0080333,200193,200242
0.00799468,201234,201177
0.00795643,202182,202112
0.00791854,203060,203046
0.00788101,203930,203980
0.00784384,204979,204914
0.00780701,205927,205848
0.00777053,206743,206781
0.00773439,207690,207714
0.00769858,208738,208647
0.00766311,209578,209579
0.00762795,210534,210511
0.00759312,211377,211443
0.00755861,212321,212374
0.00752441,213331,213306
0.00749051,214331,214236
0.00745692,215203,215167
0.00742363,216090,216097
0.00739064,217092,217027
0.00735794,217916,217957
0.00732552,218840,218886
0.00729339,219877,219815
0.00726155,220755,220744
0.00722997,221707,221672
0.00719868,222494,222601
0.00716765,223575,223528
0.00713688,224492,224456
0.00710638,225443,225383
0.00707614,226379,226310
0.00704616,227261,227237
0.00701643,228217,228163
0.00698695,229026,229089
0.00695772,229971,230015
0.00692872,231026,230940
0.00689998,231940,231865
0.00687146,232736,232790
0.00684319,233767,233714
0.00681514,234733,234639
0.00678732,235585,235563
0.00675973,236424,236486
0.00673236,237374,237410
0.00670522,238349,238332
0.00667829,239376,239255
0.00665158,240235,240178
0.00662508,241091,241100
0.00659879,242072,242021
0.0065727,242859,242943
0.00654683,243973,243864
0.00652115,244702,244785
0.00649568,245826,245706
0.0064704,246538,246626
0.00644533,247442,247546
0.00642044,248370,248466
0.00639575,249424,249385
0.00637124,250202,250304
0.00634692,251196,251223
0.00632279,252080,252141
0.00629884,252994,253059
0.00627507,254022,253977
0.00625148,254873,254895
0.00622807,255772,255812
0.00620483,256747,256729
0.00618176,257615,257646
0.00615887,258672,258562
0.00613614,259575,259478
0.00611358,260356,260394
0.00609119,261386,261310
0.00606896,262178,262225
0.00604689,263178,263140
0.00602498,263951,264054
0.00600323,264854,264969
0.00598163,265931,265883
0.00596019,266849,266796
0.00593891,267664,267710
0.00591777,268703,268623
0.00589679,269428,269536
0.00587595,270547,270448
0.00585526,271351,271360
0.00583472,272403,272272
0.00581431,273267,273184
0.00579406,274226,274095
0.00577394,275074,275006
0.00575396,276029,275917
0.00573412,276904,276827
0.00571441,277626,277737
0.00569484,278610,278647
0.00567541,279644,279557
0.0056561,280374,280466
0.00563693,281317,281375
0.00561789,282167,282283
0.00559897,283196,283192
0.00558018,284087,284100
0.00556152,285050,285007
0.00554298,286053,285915
0.00552456,286837,286822
0.00550627,287771,287729
0.0054881,288540,288635
0.00547005,289448,289541
0.00545211,290415,290447
0.00543429,291370,291353
0.00541659,292235,292258
0.00539901,293199,293163
0.00538153,294013,294068
0.00536417,294960,294973
0.00534693,295897,295877
0.00532979,296754,296781
0.00531276,297774,297684
0.00529584,298570,298588
0.00527903,299538,299490
0.00526232,300486,300393
0.00524572,301230,301296
0.00522923,302108,302198
0.00521283,302988,303099
0.00519654,303876,304001
0.00518036,304998,304902
0.00516427,305679,305803
0.00514828,306587,306704
0.00513239,307760,307604
0.0051166,308365,308504
0.0051009,309429,309404
0.0050853,310339,310303
0.0050698,311323,311202
0.00505439,312081,312101
0.00503907,312880,313000
0.00502385,313849,313898
0.00500872,314809,314796
0.00499368,315723,315693
0.00497872,316477,316591
0.00496386,317428,317488
0.00494909,318470,318385
0.0049344,319205,319281
0.0049198,320134,320177
0.00490529,321215,321073
0.00489086,322022,321969
0.00487652,322750,322864
0.00486226,323700,323759
0.00484809,324583,324654
0.00483399,325702,325548
0.00481998,326473,326442
0.00480605,327494,327336
0.0047922,328113,328230
0.00477843,329101,329123
0.00476474,329882,330016
0.00475113,330878,330908
0.00473759,331879,331801
0.00472413,332635,332693
0.00471075,333546,333584
0.00469744,334320,334476
0.00468421,335432,335367
0.00467105,336140,336258
0.00465797,337116,337149
0.00464496,338116,338039
0.00463202,339049,338929
0.00461915,339876,339819
0.00460635,340794,340708
0.00459363,341770,341597
0.00458098,342364,342486
0.00456839,343475,343375
0.00455587,344121,344263
0.00454343,345050,345151
0.00453105,346048,346038
0.00451873,346798,346926
0.00450649,347655,347813
0.00449431,348802,348700
0.00448219,349611,349586
0.00447015,350543,350472
0.00445816,351474,351358
0.00444624,352284,352244
0.00443438,352996,353129
0.00442259,353918,354014
0.00441086,354842,354899
0.00439919,355704,355783
0.00438758,356504,356668
0.00437604,357697,357551
0.00436455,358382,358435
0.00435313,359210,359318
0.00434176,360097,360201
0.00433045,361217,361084
0.00431921,361833,361966
0.00430802,362764,362849
0.00429688,363759,363730
0.00428581,364680,364612
0.00427479,365439,365493
0.00426383,366250,366374
0.00425293,367262,367255
0.00424208,368095,368135
0.00423128,369141,369015
0.00422054,369720,369895
0.00420986,370699,370775
0.00419923,371743,371654
0.00418865,372576,372533
0.00417813,373568,373411
0.00416765,374437,374290
0.00415723,375182,375168
0.00414687,376186,376045
0.00413655,376759,376923
0.00412629,377937,377800
0.00411607,378809,378677
0.00410591,379744,379554
0.0040958,380324,380430
0.00408573,381472,381306
0.00407572,382190,382182
0.00406576,382919,383057
0.00405584,383937,383932
0.00404597,384846,384807
0.00403615,385773,385682
0.00402638,386591,386556
0.00401665,387298,387430
0.00400697,388335,388304
0.00399734,389292,389177
0.00398776,390071,390050
0.00397822,390998,390923
0.00396872,391817,391796
0.00395927,392690,392668
0.00394987,393532,393540
0.00394051,394306,394412
0.00393119,395467,395283
0.00392192,396298,396154
0.00391269,397007,397025
0.00390351,397847,397896
0.00389437,398754,398766
0.00388527,399797,399636
0.00387621,400328,400505
0.0038672,401540,401375
0.00385822,402347,402244
0.00384929,402922,403113
0.0038404,404043,403981
0.00383155,404774,404849
0.00382274,405920,405717
0.00381398,406723,406585
0.00380525,407373,407452
0.00379656,408521,408320
0.00378791,409105,409186
0.0037793,409966,410053
0.00377073,410923,410919
0.0037622,411864,411785
0.00375371,412690,412651
0.00374526,413320,413516
0.00373684,414273,414381
0.00372846,415099,415246
0.00372012,416032,416110
0.00371182,417184,416975
0.00370355,417699,417839
0.00369532,418527,418702
0.00368713,419536,419566
0.00367897,420310,420429
0.00367085,421226,421291
0.00366276,422146,422154
0.00365471,422826,423016
0.0036467,423870,423878
0.00363872,424819,424740
0.00363077,425743,425601
0.00362286,426309,426462
0.00361499,427425,427323
0.00360715,428178,428183
0.00359934,428876,429044
0.00359156,429950,429904
0.00358382,430725,430763
0.00357612,431796,431623
0.00356844,432546,432482
0.0035608,433315,433340
0.00355319,434164,434199
0.00354562,434972,435057
0.00353807,435977,435915
0.00353056,436724,436773
0.00352308,437710,437630
0.00351563,438626,438487
0.00350822,439485,439344
0.00350083,440298,440200
0.00349347,440877,441057
0.00348615,441904,441913
0.00347886,442604,442768
0.00347159,443434,443624
0.00346436,444603,444479
0.00345716,445137,445334
0.00344999,446092,446188
0.00344284,447125,447042
0.00343573,447928,447896
0.00342865,448722,448750
0.00342159,449521,449603
0.00341457,450559,450456
0.00340757,451441,451309
0.0034006,451959,452162
0.00339366,452855,453014
0.00338675,453968,453866
0.00337987,454854,454718
0.00337301,455549,455569
0.00336618,456252,456420
0.00335938,457135,457271
0.00335261,458061,458122
0.00334586,459044,458972
0.00333914,459981,459822
0.00333245,460461,460672
0.00332579,461374,461521
0.00331915,462162,462370
0.00331254,463003,463219
0.00330595,463889,464068
0.00329939,464921,464916
0.00329286,465722,465764
0.00328635,466447,466612
0.00327987,467547,467459
0.00327341,468195,468306
0.00326698,469058,469153
0.00326058,470097,470000
0.0032542,470674,470846
0.00324784,471660,471692
0.00324151,472749,472538
0.0032352,473237,473383
0.00322892,474115,474228
0.00322266,475237,475073
0.00321643,476006,475918
0.00321022,476844,476762
0.00320403,477731,477606
0.00319787,478392,478450
0.00319174,479296,479294
0.00318562,480095,480137
0.00317953,481122,480980
0.00317346,481689,481823
0.00316742,482624,482665
0.0031614,483351,483507
0.0031554,484216,484349
0.00314942,485240,485190
0.00314347,485996,486032
0.00313754,486762,486873
0.00313163,487572,487713
0.00312574,488670,488554
0.00311988,489218,489394
0.00311403,490276,490234
0.00310821,491290,491073
0.00310241,492045,491913
0.00309664,492959,492752
0.00309088,493685,493590
0.00308515,494257,494429
0.00307943,495296,495267
0.00307374,496017,496105
0.00306807,496864,496942
0.00306242,497657,497780
0.00305679,498441,498617
0.00305118,499436,499454
0.00304559,500285,500290
0.00304003,501278,501126
0.00303448,501765,501962
0.00302895,502894,502798
0.00302344,503735,503633
0.00301796,504298,504468
0.00301249,505160,505303
0.00300704,506176,506138
0.00300161,507090,506972
0.00299621,507957,507806
0.00299082,508437,508640
0.00298545,509670,509473
0.0029801,510385,510306
0.00297477,511145,511139
0.00296945,511985,511972
0.00296416,512734,512804
0.00295889,513799,513636
0.00295363,514441,514468
0.00294839,515226,515299
0.00294318,516243,516130
0.00293798,516919,516961
0.00293279,517649,517792
0.00292763,518405,518622
0.00292249,519414,519453
0.00291736,520310,520282
0.00291225,521142,521112
0.00290716,521848,521941
0.00290208,522742,522770
0.00289703,523402,523599
0.00289199,524281,524427
0.00288697,525343,525255
0.00288197,526318,526083
0.00287698,526977,526911
0.00287201,527898,527738
0.00286706,528580,528565
0.00286212,529607,529392
0.00285721,530071,530218
0.00285231,531273,531045
0.00284742,532103,531871
0.00284255,532590,532696
0.0028377,533473,533522
0.00283287,534368,534347
0.00282805,535212,535172
0.00282325,535738,535996
0.00281846,536959,536820
0.0028137,537423,537644
0.00280894,538527,538468
0.00280421,539215,539292
0.00279948,539889,540115
0.00279478,540735,540938
0.00279009,541507,541760
0.00278542,542550,542583
0.00278076,543238,543405
0.00277612,544057,544226
0.00277149,545324,545048
0.00276688,545919,545869
0.00276228,546548,546690
0.0027577,547603,547511
0.00275314,548518,548331
0.00274859,549083,549151
0.00274405,550144,549971
0.00273953,550955,550791
0.00273502,551572,551610
0.00273053,552234,552429
0.00272606,553080,553248
0.00272159,553968,554066
0.00271715,554837,554885
0.00271271,555834,555703
0.0027083,556389,556520
0.00270389,557220,557338
0.0026995,558028,558155
0.00269513,558721,558972
0.00269077,559666,559788
0.00268642,560738,560604
0.00268209,561554,561420
0.00267777,562059,562236
0.00267346,563251,563052
0.00266917,564071,563867
0.00266489,564875,564682
0.00266063,565681,565496
0.00265638,566062,566311
0.00265214,567296,567125
0.00264792,567736,567939
0.00264371,568746,568752
0.00263951,569749,569566
0.00263533,570291,570379
0.00263116,571354,571191
0.002627,571889,572004
0.00262286,572976,572816
0.00261873,573716,573628
0.00261461,574337,574440
0.00261051,575397,575251
0.00260642,575920,576062
0.00260234,576641,576873
0.00259827,577661,577683
0.00259422,578274,578494
0.00259018,579600,579304
0.00258615,580068,580113
0.00258213,580733,580923
0.00257813,581601,581732
0.00257414,582335,582541
0.00257016,583190,583350
0.00256619,584409,584158
0.00256224,585034,584966
0.0025583,586000,585774
0.00255437,586776,586581
0.00255045,587450,587389
0.00254655,587965,588196
0.00254265,588805,589003
0.00253877,589703,589809
0.0025349,590460,590615
0.00253104,591722,591421
0.00252719,592203,592227
0.00252336,593010,593032
0.00251954,593816,593837
0.00251572,594697,594642
0.00251192,595211,595447
0.00250814,596429,596251
0.00250436,596980,597055
0.00250059,597740,597859
0.00249684,598375,598662
0.00249309,599480,599465
0.00248936,600286,600268
0.00248564,600953,601071
0.00248193,601955,601873
0.00247823,602569,602676
0.00247454,603668,603477
0.00247087,604200,604279
0.0024672,604848,605080
0.00246355,605860,605881
0.0024599,606549,606682
0.00245627,607460,607483
0.00245265,608565,608283
0.00244903,609359,609083
0.00244543,609898,609883
0.00244184,610755,610682
0.00243826,611231,611481
0.00243469,612265,612280
0.00243113,612917,613079
0.00242758,614107,613877
0.00242404,614922,614675
0.00242052,615277,615473
0.002417,616161,616271
0.00241349,616791,617068
0.00240999,617727,617865
0.0024065,618697,618662
0.00240303,619277,619458
0.00239956,620291,620254
0.0023961,621174,621050
0.00239265,622025,621846
0.00238922,622570,622641
0.00238579,623575,623436
0.00238237,624051,624231
0.00237896,625144,625026
0.00237556,625862,625820
0.00237217,626796,626614
0.00236879,627195,627408
0.00236543,628427,628201
0.00236207,629083,628995
0.00235871,630071,629788
0.00235537,630769,630580
0.00235204,631436,631373
0.00234872,632018,632165
0.00234541,632837,632957
0.0023421,633518,633748
0.00233881,634384,634540
0.00233553,635615,635331
0.00233225,635923,636122
0.00232898,636862,636912
0.00232573,637608,637703
0.00232248,638591,638493
0.00231924,639371,639282
0.00231601,639965,640072
0.00231279,640955,640861
0.00230957,641951,641650
0.00230637,642497,642439
0.00230318,643390,643227
0.00229999,644052,644015
0.00229681,645021,644803
0.00229365,645402,645591
0.00229049,646304,646378
0.00228734,647286,647165
0.0022842,648039,647952
0.00228106,649026,648739
0.00227794,649229,649525
0.00227482,650422,650311
0.00227171,650842,651097
0.00226861,651564,651882
0.00226552,652459,652667
0.00226244,653227,653452
0.00225937,654068,654237
0.0022563,655006,655022
0.00225324,655724,655806
0.00225019,656891,656590
0.00224715,657505,657373
0.00224412,657943,658157
0.0022411,658960,658940
0.00223808,659601,659723
0.00223507,660768,660505
0.00223207,661171,661287
0.00222908,661994,662069
0.0022261,663156,662851
0.00222312,663494,663633
0.00222015,664341,664414
0.00221719,665301,665195
0.00221424,666259,665976
0.0022113,667038,666756
0.00220836,667616,667536
0.00220543,668498,668316
0.00220251,669391,669096
0.0021996,670188,669875
0.00219669,670506,670654
0.00219379,671438,671433
0.0021909,672516,672212
0.00218802,672975,672990
0.00218514,673823,673768
0.00218228,674612,674546
0.00217942,675323,675324
0.00217656,675997,676101
0.00217372,677074,676878
0.00217088,677395,677655
0.00216805,678312,678431
0.00216523,679018,679207
0.00216241,680091,679983
0.0021596,680489,680759
0.0021568,681820,681534
0.00215401,682641,682309
0.00215122,683426,683084
0.00214844,683749,683859
0.00214567,684537,684633
0.0021429,685620,685407
0.00214015,686171,686181
0.0021374,687140,686955
0.00213465,687559,687728
0.00213192,688777,688501
0.00212919,689014,689274
0.00212646,690150,690047
0.00212375,690628,690819
0.00212104,691775,691591
0.00211834,692231,692363
0.00211564,693472,693134
0.00211295,694138,693905
0.00211027,694595,694676
0.0021076,695313,695447
0.00210493,696107,696217
0.00210227,696693,696988
0.00209961,697767,697757
0.00209697,698286,698527
0.00209432,699617,699296
0.00209169,700294,700066
0.00208906,700957,700834
0.00208644,701729,701603
0.00208383,702645,702371
0.00208122,702921,703139
0.00207862,703866,703907
0.00207602,704523,704675
0.00207343,705455,705442
0.00207085,706365,706209
0.00206828,707246,706976
0.00206571,707433,707742
0.00206314,708655,708509
0.00206059,709155,709275
0.00205804,709821,710040
0.00205549,710972,710806
0.00205296,711701,711571
